"Time (s)","Acceleration x (m/s^2)","Acceleration y (m/s^2)","Acceleration z (m/s^2)","Absolute acceleration (m/s^2)"
1.907770900E-2,4.785645306E-1,9.635896683E0,-1.071984529E0,9.707145807E0
2.162276100E-2,4.498506486E-1,9.643074989E0,-1.093519926E0,9.715299619E0
2.415604200E-2,4.043870270E-1,9.645467758E0,-1.119840980E0,9.718673827E0
2.668849000E-2,3.565305769E-1,9.655039787E0,-1.136590719E0,9.728244745E0
2.922099000E-2,3.158525825E-1,9.669396400E0,-1.160519004E0,9.743910609E0
3.175432300E-2,2.799602449E-1,9.681360245E0,-1.174875975E0,9.756405459E0
3.428760500E-2,2.440679073E-1,9.698110580E0,-1.172483087E0,9.771777452E0
3.682005200E-2,2.057827413E-1,9.717252731E0,-1.155733347E0,9.787904104E0
3.935255200E-2,1.651047617E-1,9.726823807E0,-1.134197950E0,9.794118947E0
4.188583400E-2,1.339980662E-1,9.741181374E0,-1.124626637E0,9.806801472E0
4.441916700E-2,1.028913707E-1,9.767501831E0,-1.119840980E0,9.832025350E0
4.695161500E-2,8.135596663E-2,9.781859398E0,-1.100698471E0,9.843928545E0
4.948411500E-2,7.896314561E-2,9.781859398E0,-1.071984529E0,9.840739774E0
5.201739600E-2,8.614161611E-2,9.784252167E0,-1.057627559E0,9.841625216E0
5.455067700E-2,8.853443712E-2,9.779465675E0,-1.040877819E0,9.835101112E0
5.708317700E-2,9.810572863E-2,9.769894600E0,-1.012163997E0,9.822674849E0
5.961562500E-2,1.292124242E-1,9.767501831E0,-9.810572863E-1,9.817497709E0
6.214895900E-2,1.627119333E-1,9.755537987E0,-9.499505758E-1,9.803030281E0
6.468224000E-2,1.986042857E-1,9.722038269E0,-9.284151793E-1,9.768286775E0
6.721468800E-2,2.249253243E-1,9.676574707E0,-9.044869542E-1,9.721357216E0
6.974718800E-2,2.344966233E-1,9.655039787E0,-8.901300430E-1,9.698820209E0
7.228052100E-2,2.368894368E-1,9.650253296E0,-8.997012973E-1,9.694997045E0
7.481380200E-2,2.440679073E-1,9.643074989E0,-9.140582681E-1,9.689373917E0
7.734625000E-2,2.512463629E-1,9.645467758E0,-9.140582681E-1,9.691938688E0
7.987875000E-2,2.727817893E-1,9.643074989E0,-9.140582681E-1,9.690139714E0
8.241203200E-2,2.823530734E-1,9.643074989E0,-9.212366939E-1,9.691093620E0
8.494536500E-2,2.871387303E-1,9.652647018E0,-9.164510965E-1,9.700305445E0
8.747781300E-2,3.086741269E-1,9.655039787E0,-9.140582681E-1,9.703121948E0
9.001031300E-2,3.158525825E-1,9.659825325E0,-9.140582681E-1,9.708114682E0
9.254359400E-2,3.014956415E-1,9.676574707E0,-9.379864931E-1,9.726603536E0
9.507687500E-2,2.632105052E-1,9.712467194E0,-9.930213690E-1,9.766646825E0
9.760937500E-2,2.249253243E-1,9.729216576E0,-1.043270707E0,9.787576837E0
1.001418230E-1,1.842473447E-1,9.731609344E0,-1.105484009E0,9.795930911E0
1.026751570E-1,1.483550072E-1,9.736394882E0,-1.179661512E0,9.808720395E0
1.052084380E-1,1.028913707E-1,9.738788605E0,-1.232303619E0,9.816983362E0
1.077409380E-1,5.503492057E-2,9.757930756E0,-1.268195987E0,9.840150534E0
1.102733860E-1,4.067798331E-2,9.767501831E0,-1.277767301E0,9.850808900E0
1.128067190E-1,3.110669367E-2,9.765109062E0,-1.258624673E0,9.845936151E0
1.153400000E-1,2.632104978E-2,9.762716293E0,-1.220339537E0,9.838727093E0
1.178724480E-1,3.828516230E-2,9.757930756E0,-1.196411371E0,9.831077182E0
1.204049480E-1,5.264209956E-2,9.745966911E0,-1.191625714E0,9.818686983E0
1.229382820E-1,5.982056633E-2,9.726823807E0,-1.189232826E0,9.799436442E0
1.254715630E-1,5.264209956E-2,9.717252731E0,-1.205982566E0,9.791943923E0
1.280040110E-1,3.110669367E-2,9.698110580E0,-1.234696507E0,9.776440657E0
1.305365110E-1,-4.785645287E-3,9.686145782E0,-1.251446247E0,9.766655555E0
1.330697920E-1,-2.153540403E-2,9.693324089E0,-1.258624673E0,9.774719011E0
1.356030730E-1,-2.153540403E-2,9.702896118E0,-1.261017561E0,9.784519515E0
1.381355730E-1,-2.153540403E-2,9.705288887E0,-1.265803218E0,9.787510099E0
1.406680210E-1,-4.785645287E-3,9.700503349E0,-1.272981644E0,9.783673666E0
1.432013550E-1,4.307080805E-2,9.693324089E0,-1.280160069E0,9.777586450E0
1.457346360E-1,1.028913707E-1,9.698110580E0,-1.284945726E0,9.783405388E0
1.482670840E-1,1.411765367E-1,9.698110580E0,-1.294517040E0,9.785144558E0
1.507995840E-1,1.746760458E-1,9.678967476E0,-1.296909928E0,9.767031201E0
1.533329170E-1,2.297109663E-1,9.686145782E0,-1.287338614E0,9.774018005E0
1.558661980E-1,2.584248483E-1,9.690931320E0,-1.284945726E0,9.779162478E0
1.583986460E-1,2.727817893E-1,9.683753014E0,-1.292124271E0,9.773385671E0
1.609311460E-1,2.919243574E-1,9.690931320E0,-1.296909928E0,9.781684162E0
1.634644800E-1,3.110669553E-1,9.695717812E0,-1.304088354E0,9.787969808E0
1.659977610E-1,3.182454109E-1,9.690931320E0,-1.332802176E0,9.787328115E0
1.685302090E-1,3.014956415E-1,9.693324089E0,-1.351944804E0,9.791791780E0
1.710626570E-1,2.775674164E-1,9.690931320E0,-1.368694544E0,9.791042757E0
1.735959900E-1,2.512463629E-1,9.688538551E0,-1.387837172E0,9.790658610E0
1.761293230E-1,2.344966233E-1,9.693324089E0,-1.380658627E0,9.793964407E0
1.786617710E-1,2.344966233E-1,9.676574707E0,-1.363908887E0,9.775036275E0
1.811942190E-1,2.344966233E-1,9.650253296E0,-1.342373490E0,9.745991172E0
1.837275520E-1,2.344966233E-1,9.643074989E0,-1.323230863E0,9.736263340E0
1.862608340E-1,2.297109663E-1,9.633503914E0,-1.299302697E0,9.723443438E0
1.887933340E-1,2.105683982E-1,9.619147301E0,-1.270588875E0,9.704984798E0
1.913257820E-1,1.842473447E-1,9.609575272E0,-1.256231904E0,9.693090456E0
1.938591150E-1,1.603191197E-1,9.611968994E0,-1.251446247E0,9.694419419E0
1.963923960E-1,1.292124242E-1,9.616754532E0,-1.251446247E0,9.698699979E0
1.989248440E-1,9.332008660E-2,9.616754532E0,-1.265803218E0,9.700151244E0
2.014573440E-1,6.699903309E-2,9.633503914E0,-1.280160069E0,9.718420465E0
2.039906770E-1,3.349951655E-2,9.647860527E0,-1.280160069E0,9.732478861E0
2.065239590E-1,1.435693540E-2,9.662218094E0,-1.287338614E0,9.747610237E0
2.090564070E-1,1.674975827E-2,9.683753014E0,-1.308874011E0,9.771821947E0
2.115888550E-1,3.110669367E-2,9.688538551E0,-1.323230863E0,9.778531935E0
2.141221880E-1,6.699903309E-2,9.683753014E0,-1.337587833E0,9.775924637E0
2.166555210E-1,1.028913707E-1,9.700503349E0,-1.330409408E0,9.791850747E0
2.191879690E-1,1.220339537E-1,9.707681656E0,-1.304088354E0,9.795643004E0
2.217204170E-1,1.363908947E-1,9.712467194E0,-1.280160069E0,9.797419623E0
2.242537500E-1,1.603191197E-1,9.717252731E0,-1.272981644E0,9.801590949E0
2.267870840E-1,1.818545163E-1,9.734002113E0,-1.301695466E0,9.822335735E0
2.293195320E-1,2.009970993E-1,9.741181374E0,-1.339980721E0,9.834966330E0
2.318519800E-1,2.153540403E-1,9.753145218E0,-1.356730461E0,9.849413005E0
2.343853130E-1,2.273181528E-1,9.774680138E0,-1.359123230E0,9.871335335E0
2.369185940E-1,2.368894368E-1,9.777072906E0,-1.359123230E0,9.873929673E0
2.394510420E-1,2.368894368E-1,9.769894600E0,-1.361516118E0,9.867151729E0
2.419835420E-1,2.464607358E-1,9.765109062E0,-1.368694544E0,9.863641450E0
2.445168750E-1,2.392822653E-1,9.741181374E0,-1.378265858E0,9.841112098E0
2.470501570E-1,2.297109663E-1,9.714859962E0,-1.397408366E0,9.817536420E0
2.495826050E-1,2.368894368E-1,9.712467194E0,-1.404586911E0,9.816363888E0
2.521151050E-1,2.344966233E-1,9.700503349E0,-1.402194023E0,9.804126783E0
2.546484380E-1,2.416750938E-1,9.671789169E0,-1.402194023E0,9.775891809E0
2.571817190E-1,2.512463629E-1,9.650253296E0,-1.402194023E0,9.754827599E0
2.597141670E-1,2.368894368E-1,9.647860527E0,-1.428515077E0,9.755920494E0
2.622466150E-1,2.392822653E-1,9.657432556E0,-1.445264935E0,9.767909209E0
2.647799480E-1,2.392822653E-1,9.652647018E0,-1.469193101E0,9.766748632E0
2.673132820E-1,2.297109663E-1,9.643074989E0,-1.495514154E0,9.761056550E0
2.698457300E-1,2.392822653E-1,9.633503914E0,-1.488335729E0,9.750733147E0
2.723781770E-1,2.560320199E-1,9.623932838E0,-1.464407444E0,9.738076034E0
2.749115110E-1,2.799602449E-1,9.626325607E0,-1.438086390E0,9.737176947E0
2.774447920E-1,3.062812984E-1,9.614361763E0,-1.399801254E0,9.720555740E0
2.799772400E-1,3.517449200E-1,9.611968994E0,-1.351944804E0,9.712951518E0
2.825097400E-1,3.804588020E-1,9.600004196E0,-1.316052437E0,9.697258555E0
2.850430730E-1,4.163511395E-1,9.573683739E0,-1.289731383E0,9.669135206E0
2.875763550E-1,4.546363056E-1,9.578469276E0,-1.282552958E0,9.674642626E0
2.901088020E-1,4.618147612E-1,9.583254814E0,-1.304088354E0,9.682597386E0
2.926413020E-1,4.737788737E-1,9.576076508E0,-1.311266780E0,9.677041297E0
2.951746360E-1,4.737788737E-1,9.580862045E0,-1.323230863E0,9.683404560E0
2.977079170E-1,4.546363056E-1,9.597611427E0,-1.373480201E0,9.706043846E0
3.002403650E-1,4.354937077E-1,9.621540070E0,-1.409372568E0,9.733962149E0
3.027728130E-1,4.139583111E-1,9.647860527E0,-1.435693622E0,9.762878183E0
3.053061460E-1,3.948157430E-1,9.662218094E0,-1.469193101E0,9.781250755E0
3.078394800E-1,3.637090325E-1,9.683753014E0,-1.483550072E0,9.803482927E0
3.103719270E-1,3.206382394E-1,9.693324089E0,-1.481157184E0,9.811073712E0
3.129043750E-1,2.799602449E-1,9.695717812E0,-1.462014675E0,9.809322532E0
3.154377090E-1,2.464607358E-1,9.710074425E0,-1.435693622E0,9.818732322E0
3.179709900E-1,2.153540403E-1,9.705288887E0,-1.428515077E0,9.812220191E0
3.205034900E-1,1.962114573E-1,9.700503349E0,-1.445264935E0,9.809538975E0
3.230359380E-1,1.890329868E-1,9.693324089E0,-1.459621787E0,9.804425589E0
3.255692710E-1,1.962114573E-1,9.678967476E0,-1.466800332E0,9.791445938E0
3.281025520E-1,2.033899277E-1,9.659825325E0,-1.485942841E0,9.775562332E0
3.306350000E-1,2.009970993E-1,9.650253296E0,-1.493121386E0,9.767149020E0
3.331675000E-1,2.057827413E-1,9.652647018E0,-1.488335729E0,9.768883469E0
3.357008340E-1,2.201396823E-1,9.643074989E0,-1.488335729E0,9.759738725E0
3.382341150E-1,2.416750938E-1,9.635896683E0,-1.476371527E0,9.751337581E0
3.407665630E-1,2.679961324E-1,9.640682220E0,-1.452443361E0,9.753161914E0
3.432990630E-1,2.799602449E-1,9.631111145E0,-1.430907965E0,9.740850950E0
3.458323960E-1,2.871387303E-1,9.621540070E0,-1.438086390E0,9.732655055E0
3.483656770E-1,3.110669553E-1,9.611968994E0,-1.440479279E0,9.724283580E0
3.508981250E-1,3.254238665E-1,9.607182503E0,-1.428515077E0,9.718256616E0
3.534305730E-1,3.373879790E-1,9.619147301E0,-1.428515077E0,9.730492319E0
3.559639070E-1,3.661018610E-1,9.633503914E0,-1.447657704E0,9.748545587E0
3.584972400E-1,3.852444589E-1,9.635896683E0,-1.473978758E0,9.755589759E0
3.610296880E-1,3.948157430E-1,9.628718376E0,-1.490728498E0,9.751429049E0
3.635621360E-1,4.067798555E-1,9.638289452E0,-1.502692580E0,9.763205334E0
3.660954690E-1,4.019941986E-1,9.657432556E0,-1.533799291E0,9.786733019E0
3.686288020E-1,3.876372576E-1,9.664610863E0,-1.581655741E0,9.800846936E0
3.711612500E-1,3.661018610E-1,9.662218094E0,-1.624726534E0,9.804704247E0
3.736936980E-1,3.445664644E-1,9.659825325E0,-1.646261930E0,9.805158321E0
3.762270320E-1,3.230310678E-1,9.650253296E0,-1.658226132E0,9.797012384E0
3.787603130E-1,2.943171859E-1,9.640682220E0,-1.651047587E0,9.785465468E0
3.812927610E-1,2.823530734E-1,9.645467758E0,-1.627119422E0,9.785820821E0
3.838252610E-1,2.679961324E-1,9.640682220E0,-1.617548108E0,9.779112306E0
3.863585940E-1,2.416750938E-1,9.631111145E0,-1.607976794E0,9.767410000E0
3.888918750E-1,2.344966233E-1,9.628718376E0,-1.596012712E0,9.762912619E0
3.914243230E-1,2.201396823E-1,9.619147301E0,-1.603191137E0,9.754315870E0
3.939568230E-1,1.842473447E-1,9.616754532E0,-1.603191137E0,9.751212060E0
3.964901570E-1,1.627119333E-1,9.619147301E0,-1.600798368E0,9.752795773E0
3.990234380E-1,1.459621787E-1,9.623932838E0,-1.596012712E0,9.756466820E0
4.015558860E-1,1.196411327E-1,9.635896683E0,-1.588834286E0,9.766740156E0
4.040883340E-1,9.332008660E-2,9.655039787E0,-1.596012712E0,9.786509005E0
4.066216670E-1,7.417750359E-2,9.690931320E0,-1.612762451E0,9.824492602E0
4.091550000E-1,7.178468257E-2,9.714859962E0,-1.622333765E0,9.849650957E0
4.116874480E-1,7.178468257E-2,9.729216576E0,-1.641476393E0,9.866977904E0
4.142198960E-1,7.178468257E-2,9.741181374E0,-1.677368641E0,9.884803142E0
4.167532300E-1,7.178468257E-2,9.741181374E0,-1.715653777E0,9.891371769E0
4.192865110E-1,5.982056633E-2,9.724431038E0,-1.751546144E0,9.881095658E0
4.218189590E-1,4.546362907E-2,9.710074425E0,-1.756331801E0,9.867741062E0
4.243514590E-1,2.632104978E-2,9.690931320E0,-1.756331801E0,9.848834654E0
4.268847920E-1,1.196411345E-2,9.667003632E0,-1.749153376E0,9.823982893E0
4.294180730E-1,7.178467698E-3,9.638289452E0,-1.722832322E0,9.791058487E0
4.319505210E-1,-4.785645287E-3,9.623932838E0,-1.703689694E0,9.773569704E0
4.344830210E-1,-1.674975827E-2,9.619147301E0,-1.665404558E0,9.762266524E0
4.370163550E-1,-2.153540403E-2,9.604789734E0,-1.615155339E0,9.739670240E0
4.395496360E-1,-3.110669367E-2,9.600004196E0,-1.581655741E0,9.729474964E0
4.420820840E-1,-2.153540403E-2,9.611968994E0,-1.560120344E0,9.737781431E0
4.446145320E-1,1.196411345E-2,9.628718376E0,-1.545763373E0,9.752012362E0
4.471478650E-1,3.110669367E-2,9.635896683E0,-1.545763373E0,9.759142222E0
4.496811980E-1,4.307080805E-2,9.650253296E0,-1.562513232E0,9.776026359E0
4.522136460E-1,6.221338734E-2,9.674181938E0,-1.572084427E0,9.801281351E0
4.547460940E-1,9.092725813E-2,9.664610863E0,-1.576870084E0,9.792828506E0
4.572794270E-1,1.100698411E-1,9.667003632E0,-1.593619823E0,9.798096689E0
4.598127610E-1,1.100698411E-1,9.683753014E0,-1.610369682E0,9.817355974E0
4.623451570E-1,9.810572863E-2,9.690931320E0,-1.624726534E0,9.826673440E0
4.648776570E-1,9.092725813E-2,9.702896118E0,-1.607976794E0,9.835651998E0
4.674109900E-1,9.810572863E-2,9.693324089E0,-1.579262972E0,9.821620445E0
4.699442710E-1,1.148554832E-1,9.669396400E0,-1.560120344E0,9.795120929E0
4.724767190E-1,1.387837082E-1,9.650253296E0,-1.540977836E0,9.773497955E0
4.750092190E-1,1.531406492E-1,9.643074989E0,-1.533799291E0,9.765494743E0
4.775425520E-1,1.555334777E-1,9.631111145E0,-1.514656782E0,9.750727035E0
4.800758340E-1,1.579262912E-1,9.631111145E0,-1.502692580E0,9.748914175E0
4.826082820E-1,1.555334777E-1,9.635896683E0,-1.519442320E0,9.756198056E0
4.851407300E-1,1.459621787E-1,9.633503914E0,-1.543370605E0,9.757443079E0
4.876740630E-1,1.387837082E-1,9.621540070E0,-1.572084427E0,9.750115059E0
4.902073960E-1,1.316052526E-1,9.607182503E0,-1.600798368E0,9.740525191E0
4.927398440E-1,1.196411327E-1,9.600004196E0,-1.627119422E0,9.737654347E0
4.952722920E-1,1.004985496E-1,9.604789734E0,-1.643869162E0,9.744967502E0
4.978056250E-1,8.135596663E-2,9.609575272E0,-1.624726534E0,9.746296322E0
5.003389590E-1,7.896314561E-2,9.611968994E0,-1.612762451E0,9.746649981E0
5.028714070E-1,8.853443712E-2,9.628718376E0,-1.612762451E0,9.763250414E0
5.054038550E-1,7.896314561E-2,9.640682220E0,-1.610369682E0,9.774573104E0
5.079371880E-1,6.221338734E-2,9.657432556E0,-1.603191137E0,9.789795499E0
5.104704690E-1,5.742774159E-2,9.662218094E0,-1.581655741E0,9.790985207E0
5.130029170E-1,5.742774159E-2,9.662218094E0,-1.564906001E0,9.788293377E0
5.155354170E-1,4.546362907E-2,9.671789169E0,-1.576870084E0,9.799596519E0
5.180687500E-1,2.632104978E-2,9.669396400E0,-1.617548108E0,9.803794236E0
5.206020320E-1,1.914258115E-2,9.662218094E0,-1.655833244E0,9.803091791E0
5.231344800E-1,9.571290575E-3,9.655039787E0,-1.694118381E0,9.802546709E0
5.256669800E-1,0.000000000E0,9.635896683E0,-1.725225091E0,9.789121845E0
5.282003130E-1,7.178467698E-3,9.623932838E0,-1.725225091E0,9.777348128E0
5.307335940E-1,1.196411345E-2,9.616754532E0,-1.694118381E0,9.764842444E0
5.332660420E-1,1.435693540E-2,9.614361763E0,-1.670190215E0,9.758365313E0
5.357985420E-1,2.392822644E-3,9.626325607E0,-1.655833244E0,9.767698509E0
5.383318750E-1,-9.571290575E-3,9.621540070E0,-1.634297848E0,9.759357273E0
5.408651570E-1,-1.674975827E-2,9.614361763E0,-1.641476393E0,9.753495651E0
5.433976050E-1,-2.153540403E-2,9.623932838E0,-1.651047587E0,9.764553507E0
5.459300520E-1,-9.571290575E-3,9.616754532E0,-1.631905079E0,9.754238746E0
5.484633860E-1,-7.178467698E-3,9.621540070E0,-1.596012712E0,9.753017042E0
5.509966670E-1,-1.435693540E-2,9.631111145E0,-1.574477315E0,9.758969558E0
5.535291670E-1,-9.571290575E-3,9.635896683E0,-1.569691658E0,9.762915978E0
5.560616150E-1,-4.785645287E-3,9.657432556E0,-1.574477315E0,9.784937675E0
5.585949480E-1,-2.392822644E-3,9.659825325E0,-1.593619823E0,9.790396068E0
5.611282300E-1,2.392822690E-2,9.662218094E0,-1.610369682E0,9.795525589E0
5.636606770E-1,5.742774159E-2,9.662218094E0,-1.610369682E0,9.795664702E0
5.661931770E-1,8.853443712E-2,9.659825325E0,-1.610369682E0,9.793536346E0
5.687265110E-1,1.196411327E-1,9.664610863E0,-1.596012712E0,9.796237732E0
5.712597920E-1,1.387837082E-1,9.671789169E0,-1.584048629E0,9.801631329E0
5.737922400E-1,1.507478207E-1,9.683753014E0,-1.596012712E0,9.815551636E0
5.763247400E-1,1.746760458E-1,9.659825325E0,-1.612762451E0,9.795087532E0
5.788580730E-1,2.105683982E-1,9.635896683E0,-1.615155339E0,9.772592834E0
5.813913550E-1,2.416750938E-1,9.635896683E0,-1.605584025E0,9.771735352E0
5.839238020E-1,2.392822653E-1,9.638289452E0,-1.584048629E0,9.770521461E0
5.864562500E-1,2.297109663E-1,9.631111145E0,-1.550549030E0,9.757831281E0
5.889895840E-1,2.512463629E-1,9.604789734E0,-1.529013634E0,9.728976989E0
5.915229170E-1,2.727817893E-1,9.576076508E0,-1.529013634E0,9.701213011E0
5.940553650E-1,2.871387303E-1,9.554540634E0,-1.526620865E0,9.679993112E0
5.965878130E-1,3.038884699E-1,9.530612946E0,-1.519442320E0,9.655756640E0
5.991211460E-1,3.158525825E-1,9.530612946E0,-1.500299811E0,9.653146922E0
6.016544270E-1,3.134597540E-1,9.537791252E0,-1.476371527E0,9.656468913E0
6.041868750E-1,2.991028428E-1,9.544969559E0,-1.490728498E0,9.665307954E0
6.067193750E-1,2.823530734E-1,9.556933403E0,-1.526620865E0,9.682214137E0
6.092527090E-1,2.703889608E-1,9.566504478E0,-1.557727575E0,9.696269042E0
6.117859900E-1,2.512463629E-1,9.590433121E0,-1.574477315E0,9.722063104E0
6.143184380E-1,2.273181528E-1,9.611968994E0,-1.591227055E0,9.745441243E0
6.168509380E-1,1.914258152E-1,9.635896683E0,-1.612762451E0,9.771803899E0
6.193842710E-1,1.483550072E-1,9.669396400E0,-1.639083505E0,9.808457101E0
6.219175520E-1,1.052841991E-1,9.690931320E0,-1.660618901E0,9.832745789E0
6.244500000E-1,5.982056633E-2,9.705288887E0,-1.672582984E0,9.848540233E0
6.269824480E-1,2.632104978E-2,9.719645500E0,-1.691725612E0,9.865806454E0
6.295157820E-1,0.000000000E0,9.729216576E0,-1.706082582E0,9.877670421E0
6.320491150E-1,-1.196411345E-2,9.738788605E0,-1.694118381E0,9.885048493E0
6.345815630E-1,-3.828516230E-2,9.748359680E0,-1.674975872E0,9.891285376E0
6.371140110E-1,-5.982056633E-2,9.757930756E0,-1.639083505E0,9.894816111E0
6.396473440E-1,-8.374879509E-2,9.750752449E0,-1.610369682E0,9.883191676E0
6.421806250E-1,-1.124626622E-1,9.726823807E0,-1.605584025E0,9.859089678E0
6.447131250E-1,-1.292124242E-1,9.714859962E0,-1.591227055E0,9.845161425E0
6.472455730E-1,-1.292124242E-1,9.702896118E0,-1.567298889E0,9.829512436E0
6.497789070E-1,-1.316052526E-1,9.676574707E0,-1.543370605E0,9.799765856E0
6.523121880E-1,-1.339980662E-1,9.643074989E0,-1.538584948E0,9.765966126E0
6.548446360E-1,-1.268195957E-1,9.604789734E0,-1.521835208E0,9.725433226E0
6.573771360E-1,-1.220339537E-1,9.578469276E0,-1.495514154E0,9.695283830E0
6.599104690E-1,-1.052841991E-1,9.554540634E0,-1.485942841E0,9.669971955E0
6.624437500E-1,-7.657032460E-2,9.542576790E0,-1.502692580E0,9.660472028E0
6.649761980E-1,-5.742774159E-2,9.544969559E0,-1.533799291E0,9.667589259E0
6.675086980E-1,-5.264209956E-2,9.542576790E0,-1.555334687E0,9.668640492E0
6.700420320E-1,-3.110669367E-2,9.556933403E0,-1.569691658E0,9.685033588E0
6.725753130E-1,1.914258115E-2,9.573683739E0,-1.576870084E0,9.702695812E0
6.751077610E-1,7.657032460E-2,9.583254814E0,-1.588834286E0,9.714372354E0
6.776402090E-1,1.268195957E-1,9.595218658E0,-1.591227055E0,9.727091438E0
6.801735420E-1,1.770688742E-1,9.607182503E0,-1.581655741E0,9.738118089E0
6.827068750E-1,2.225325108E-1,9.623932838E0,-1.574477315E0,9.754413504E0
6.852393230E-1,2.703889608E-1,9.638289452E0,-1.564906001E0,9.768247772E0
6.877717710E-1,3.110669553E-1,9.647860527E0,-1.567298889E0,9.779284289E0
6.903051050E-1,3.349951804E-1,9.659825325E0,-1.557727575E0,9.790350468E0
6.928383860E-1,3.637090325E-1,9.659825325E0,-1.526620865E0,9.786474382E0
6.953708340E-1,3.996013701E-1,9.655039787E0,-1.514656782E0,9.781291311E0
6.979033340E-1,4.331009090E-1,9.647860527E0,-1.512263894E0,9.775261185E0
7.004366670E-1,4.546363056E-1,9.645467758E0,-1.512263894E0,9.773877661E0
7.029699480E-1,4.737788737E-1,9.647860527E0,-1.519442320E0,9.778260793E0
